time angle x y
0.000	-1.033	0.238	-0.142
0.033	-0.952	0.227	-0.161
0.067	-0.838	0.209	-0.188
0.100	-0.692	0.178	-0.215
0.133	-0.522	0.140	-0.244
0.167	-0.335	0.092	-0.266
0.200	-0.132	0.037	-0.282
0.233	0.071	-0.020	-0.284
0.267	0.273	-0.078	-0.278
0.300	0.461	-0.129	-0.260
0.331	0.625	-0.171	-0.237
0.364	0.777	-0.207	-0.210
0.397	0.906	-0.234	-0.184
0.431	0.998	-0.251	-0.162
0.464	1.050	-0.258	-0.148
0.497	1.074	-0.262	-0.142
0.531	1.059	-0.260	-0.146
0.564	1.013	-0.252	-0.158
0.600	0.926	-0.237	-0.178
0.634	0.812	-0.215	-0.203
0.667	0.672	-0.183	-0.230
0.700	0.510	-0.142	-0.255
0.734	0.332	-0.094	-0.273
0.767	0.145	-0.041	-0.284
0.800	-0.048	0.014	-0.285
0.834	-0.238	0.067	-0.276
0.867	-0.422	0.116	-0.258
0.900	-0.592	0.157	-0.234
0.934	-0.741	0.189	-0.207
0.967	-0.866	0.213	-0.181
1.000	-0.866	0.213	-0.181
1.034	-1.028	0.238	-0.143
1.067	-1.056	0.242	-0.137
1.100	-1.051	0.243	-0.139
1.134	-1.006	0.235	-0.149
1.167	-0.927	0.223	-0.167
1.200	-0.816	0.203	-0.191
1.234	-0.675	0.174	-0.218
1.267	-0.511	0.137	-0.245
1.300	-0.326	0.090	-0.266
1.334	-0.132	0.037	-0.280
1.367	0.069	-0.020	-0.284
1.401	0.264	-0.075	-0.277
1.434	0.450	-0.126	-0.261
1.467	0.620	-0.170	-0.238
1.501	0.769	-0.205	-0.212
1.534	0.889	-0.230	-0.187
1.567	0.979	-0.247	-0.166
1.601	1.030	-0.256	-0.154
1.634	1.051	-0.259	-0.148
1.667	1.033	-0.256	-0.153
1.701	0.985	-0.248	-0.165
1.734	0.901	-0.232	-0.184
1.767	0.787	-0.209	-0.208
1.801	0.648	-0.177	-0.234
1.835	0.487	-0.136	-0.257
1.868	0.310	-0.088	-0.275
1.901	0.125	-0.036	-0.284
1.935	-0.065	0.018	-0.284
1.968	-0.251	0.070	-0.274
2.001	-0.430	0.117	-0.256
2.035	-0.595	0.157	-0.233
2.070	-0.744	0.190	-0.207
2.103	-0.862	0.213	-0.183
2.137	-0.950	0.228	-0.163
2.170	-1.007	0.237	-0.150
2.204	-1.029	0.240	-0.144
2.237	-1.017	0.238	-0.147
2.270	-0.969	0.231	-0.159
2.304	-0.888	0.217	-0.177
2.337	-0.775	0.196	-0.200
2.370	-0.634	0.166	-0.226
2.404	-0.468	0.127	-0.251
2.437	-0.286	0.080	-0.271
2.470	-0.093	0.027	-0.283
2.504	0.102	-0.029	-0.285
2.537	0.292	-0.083	-0.277
2.570	0.472	-0.132	-0.259
2.604	0.634	-0.174	-0.237
2.637	0.774	-0.207	-0.212
2.670	0.886	-0.231	-0.189
2.704	0.965	-0.246	-0.170
2.737	1.010	-0.253	-0.159
2.770	1.020	-0.254	-0.156
2.804	1.003	-0.252	-0.161
2.837	0.946	-0.242	-0.174
2.870	0.857	-0.224	-0.194
2.904	0.740	-0.199	-0.218
2.937	0.599	-0.165	-0.242
2.970	0.438	-0.123	-0.263
3.004	0.263	-0.075	-0.278
3.037	0.080	-0.023	-0.285
3.071	-0.105	0.030	-0.283
3.104	-0.287	0.080	-0.271
3.137	-0.459	0.125	-0.253
3.171	-0.616	0.162	-0.230
3.204	-0.752	0.192	-0.205
3.237	-0.862	0.213	-0.182
3.271	-0.942	0.226	-0.165
3.304	-0.991	0.234	-0.153
3.337	-1.007	0.235	-0.149
3.371	-0.988	0.233	-0.153
3.404	-0.933	0.224	-0.166
3.437	-0.845	0.209	-0.185
3.471	-0.727	0.186	-0.209
3.504	-0.582	0.154	-0.234
3.537	-0.415	0.113	-0.257
3.571	-0.232	0.065	-0.275
3.604	-0.042	0.012	-0.284
3.637	0.150	-0.043	-0.283
3.671	0.334	-0.095	-0.273
3.704	0.506	-0.141	-0.255
3.737	0.660	-0.180	-0.233
3.771	0.788	-0.210	-0.209
3.804	0.891	-0.232	-0.187
3.837	0.961	-0.245	-0.171
3.871	0.998	-0.251	-0.162
3.904	0.998	-0.251	-0.162
3.937	0.968	-0.246	-0.170
3.971	0.905	-0.234	-0.184
4.004	0.810	-0.214	-0.204
4.038	0.690	-0.187	-0.227
4.071	0.546	-0.152	-0.249
4.104	0.385	-0.109	-0.269
4.138	0.210	-0.060	-0.281
4.171	0.030	-0.008	-0.285
4.204	-0.153	0.043	-0.280
4.238	-0.330	0.091	-0.267
4.271	-0.494	0.133	-0.247
4.304	-0.643	0.168	-0.224
4.338	-0.769	0.195	-0.201
4.371	-0.869	0.214	-0.181
4.404	-0.939	0.225	-0.165
4.438	-0.976	0.231	-0.156
4.471	-0.982	0.231	-0.154
4.504	-0.952	0.227	-0.161
4.538	-0.889	0.216	-0.175
4.571	-0.792	0.198	-0.195
4.604	-0.665	0.172	-0.219
4.638	-0.516	0.138	-0.243
4.671	-0.347	0.096	-0.264
4.704	-0.165	0.046	-0.278
4.738	0.022	-0.006	-0.284
4.771	0.208	-0.059	-0.280
4.804	0.386	-0.109	-0.268
4.838	0.551	-0.153	-0.249
4.871	0.693	-0.188	-0.227
4.905	0.811	-0.215	-0.205
4.938	0.899	-0.234	-0.186
4.971	0.956	-0.245	-0.173
5.005	0.978	-0.248	-0.167
5.038	0.967	-0.246	-0.170
5.069	0.929	-0.239	-0.178
5.102	0.857	-0.224	-0.194
5.136	0.754	-0.201	-0.214
5.169	0.626	-0.171	-0.236
5.202	0.478	-0.133	-0.256
5.236	0.313	-0.088	-0.272
5.269	0.140	-0.039	-0.281
5.302	-0.038	0.011	-0.282
5.336	-0.214	0.060	-0.274
5.369	-0.384	0.105	-0.260
5.402	-0.539	0.144	-0.240
5.436	-0.676	0.175	-0.218
5.469	-0.790	0.198	-0.197
5.503	-0.876	0.214	-0.179
5.536	-0.930	0.224	-0.167
5.569	-0.949	0.225	-0.161
5.603	-0.945	0.226	-0.163
5.636	-0.905	0.220	-0.172
5.669	-0.830	0.206	-0.188
5.703	-0.725	0.186	-0.209
5.736	-0.593	0.157	-0.232
5.769	-0.439	0.119	-0.255
5.803	-0.267	0.074	-0.272
5.836	-0.086	0.024	-0.283
5.869	0.098	-0.028	-0.285
5.903	0.278	-0.079	-0.278
5.936	0.444	-0.125	-0.263
5.969	0.597	-0.165	-0.243
6.003	0.728	-0.197	-0.221
6.036	0.830	-0.220	-0.201
6.069	0.903	-0.235	-0.185
6.103	0.945	-0.243	-0.175
6.136	0.954	-0.244	-0.173
6.169	0.929	-0.239	-0.179
6.203	0.874	-0.228	-0.191
6.236	0.788	-0.210	-0.209
6.269	0.676	-0.184	-0.230
6.303	0.541	-0.150	-0.250
6.336	0.387	-0.109	-0.268
6.369	0.221	-0.063	-0.280
6.403	0.049	-0.014	-0.284
6.436	-0.123	0.035	-0.281
6.470	-0.291	0.081	-0.270
6.503	-0.450	0.122	-0.253
6.536	-0.593	0.157	-0.232
6.570	-0.716	0.183	-0.211
6.603	-0.815	0.203	-0.192
6.636	-0.886	0.216	-0.177
6.670	-0.923	0.223	-0.168
6.703	-0.930	0.224	-0.167
6.736	-0.907	0.220	-0.172
6.770	-0.850	0.210	-0.184
6.803	-0.762	0.193	-0.203
6.836	-0.644	0.168	-0.224
6.870	-0.503	0.136	-0.246
6.903	-0.343	0.095	-0.266
6.936	-0.169	0.048	-0.279
6.970	0.011	-0.003	-0.285
7.003	0.189	-0.054	-0.282
7.036	0.360	-0.102	-0.272
7.070	0.515	-0.144	-0.255
7.103	0.655	-0.180	-0.234
7.136	0.769	-0.207	-0.213
7.170	0.853	-0.225	-0.196
7.203	0.910	-0.236	-0.184
7.236	0.931	-0.239	-0.178
7.270	0.920	-0.237	-0.180
7.303	0.882	-0.230	-0.189
7.337	0.811	-0.215	-0.204
7.370	0.712	-0.192	-0.223
7.403	0.588	-0.162	-0.243
7.437	0.445	-0.125	-0.262
7.470	0.288	-0.082	-0.276
7.503	0.122	-0.035	-0.283
7.537	-0.046	0.013	-0.283
7.570	-0.214	0.060	-0.276
7.603	-0.375	0.103	-0.262
7.637	-0.522	0.140	-0.243
7.670	-0.652	0.170	-0.223
7.703	-0.759	0.193	-0.203
7.737	-0.839	0.208	-0.187
7.770	-0.890	0.218	-0.176
7.803	-0.909	0.220	-0.172
7.837	-0.900	0.219	-0.174
7.870	-0.858	0.212	-0.183
7.903	-0.783	0.198	-0.199
7.937	-0.678	0.176	-0.219
7.970	-0.550	0.147	-0.240
8.003	-0.398	0.109	-0.260
8.037	-0.232	0.065	-0.276
8.070	-0.058	0.016	-0.284
8.103	0.118	-0.034	-0.285
8.137	0.289	-0.082	-0.277
8.170	0.448	-0.126	-0.263
8.203	0.592	-0.164	-0.244
8.237	0.713	-0.194	-0.224
8.270	0.808	-0.215	-0.206
8.304	0.873	-0.228	-0.191
8.337	0.904	-0.234	-0.184
8.370	0.905	-0.233	-0.183
8.404	0.878	-0.228	-0.190
8.437	0.820	-0.216	-0.202
8.470	0.735	-0.198	-0.219
8.504	0.621	-0.170	-0.238
8.537	0.487	-0.136	-0.257
8.570	0.337	-0.095	-0.272
8.604	0.176	-0.050	-0.281
8.637	0.010	-0.003	-0.284
8.670	-0.156	0.044	-0.279
8.704	-0.316	0.088	-0.268
8.737	-0.465	0.126	-0.251
8.770	-0.599	0.158	-0.232
8.804	-0.712	0.183	-0.212
8.837	-0.799	0.201	-0.196
8.870	-0.858	0.212	-0.183
8.904	-0.887	0.217	-0.177
8.937	-0.886	0.217	-0.178
8.970	-0.854	0.212	-0.185
9.004	-0.790	0.200	-0.198
9.037	-0.698	0.181	-0.216
9.070	-0.579	0.154	-0.236
9.104	-0.438	0.120	-0.256
9.137	-0.281	0.079	-0.273
9.171	-0.113	0.032	-0.283
9.204	0.059	-0.017	-0.286
9.237	0.228	-0.065	-0.281
9.271	0.388	-0.110	-0.269
9.304	0.535	-0.149	-0.251
9.337	0.661	-0.181	-0.232
9.371	0.763	-0.205	-0.214
9.404	0.837	-0.220	-0.199
9.437	0.880	-0.229	-0.189
9.471	0.889	-0.230	-0.187
9.504	0.872	-0.227	-0.191
9.537	0.824	-0.217	-0.201
9.571	0.746	-0.200	-0.216
9.604	0.641	-0.175	-0.234
9.637	0.516	-0.143	-0.252
9.671	0.374	-0.105	-0.268
9.704	0.218	-0.062	-0.279
9.733	0.066	-0.019	-0.283
9.766	-0.098	0.028	-0.282
9.800	-0.258	0.072	-0.273
9.833	-0.410	0.112	-0.258
9.866	-0.547	0.146	-0.240
9.900	-0.665	0.174	-0.221
9.933	-0.759	0.194	-0.204
9.966	-0.826	0.207	-0.191
10.000	-0.862	0.214	-0.183
10.033	-0.871	0.216	-0.182
10.066	-0.848	0.212	-0.187
10.100	-0.796	0.202	-0.198
10.133	-0.712	0.185	-0.214
10.166	-0.601	0.160	-0.233
10.200	-0.468	0.128	-0.252
10.233	-0.318	0.089	-0.269
10.266	-0.157	0.044	-0.281
10.300	0.010	-0.003	-0.285
10.333	0.176	-0.050	-0.283
10.366	0.334	-0.095	-0.273
10.400	0.480	-0.134	-0.258
10.433	0.608	-0.167	-0.240
10.467	0.715	-0.193	-0.222
10.500	0.795	-0.211	-0.207
10.533	0.846	-0.221	-0.196
10.567	0.867	-0.225	-0.191
10.600	0.857	-0.222	-0.193
10.633	0.819	-0.215	-0.201
10.667	0.749	-0.199	-0.214
10.700	0.654	-0.177	-0.231
10.733	0.537	-0.148	-0.248
10.767	0.401	-0.112	-0.264
10.800	0.253	-0.071	-0.276
10.833	0.095	-0.027	-0.283
10.867	-0.066	0.019	-0.282
10.900	-0.223	0.062	-0.275
10.933	-0.374	0.103	-0.263
10.967	-0.510	0.138	-0.247
11.000	-0.628	0.166	-0.229
11.033	-0.727	0.188	-0.212
11.067	-0.799	0.203	-0.198
11.100	-0.840	0.211	-0.189
11.133	-0.854	0.214	-0.186
11.167	-0.839	0.211	-0.190
11.200	-0.791	0.202	-0.200
11.233	-0.714	0.186	-0.215
11.267	-0.610	0.163	-0.233
11.300	-0.484	0.132	-0.251
11.334	-0.339	0.094	-0.268
11.367	-0.181	0.051	-0.279
11.400	-0.018	0.005	-0.284
11.434	0.146	-0.042	-0.283
11.467	0.304	-0.086	-0.274
11.500	0.449	-0.125	-0.260
11.534	0.580	-0.159	-0.243
11.567	0.689	-0.185	-0.225
11.600	0.772	-0.205	-0.210
11.634	0.826	-0.216	-0.199
11.667	0.852	-0.221	-0.193
11.700	0.847	-0.220	-0.194
11.734	0.813	-0.213	-0.201
11.767	0.749	-0.198	-0.213
11.800	0.658	-0.177	-0.229
11.834	0.544	-0.149	-0.246
11.867	0.413	-0.115	-0.262
11.900	0.269	-0.076	-0.275
11.934	0.115	-0.032	-0.282
11.967	-0.043	0.012	-0.283
12.000	-0.199	0.056	-0.277
12.034	-0.348	0.096	-0.266
12.067	-0.484	0.132	-0.251
12.100	-0.604	0.161	-0.234
12.145	-0.718	0.187	-0.215
12.178	-0.784	0.201	-0.202
12.212	-0.824	0.209	-0.194
12.245	-0.836	0.212	-0.191
12.278	-0.820	0.209	-0.195
12.312	-0.772	0.199	-0.205
12.345	-0.695	0.183	-0.219
12.378	-0.592	0.159	-0.237
12.412	-0.467	0.128	-0.255
12.445	-0.323	0.091	-0.271
12.478	-0.167	0.048	-0.282
12.512	-0.005	0.001	-0.286
12.545	0.158	-0.045	-0.284
12.578	0.313	-0.089	-0.274
12.612	0.456	-0.128	-0.260
12.645	0.581	-0.160	-0.243
12.678	0.685	-0.185	-0.226
12.712	0.765	-0.202	-0.211
12.745	0.815	-0.213	-0.201
12.778	0.839	-0.217	-0.195
12.812	0.830	-0.216	-0.197
12.845	0.793	-0.208	-0.205
12.878	0.730	-0.194	-0.217
12.912	0.640	-0.173	-0.232
12.945	0.528	-0.145	-0.249
12.978	0.397	-0.111	-0.265
13.012	0.253	-0.071	-0.276
13.045	0.100	-0.028	-0.283
13.079	-0.056	0.016	-0.284
13.112	-0.210	0.059	-0.278
13.145	-0.355	0.099	-0.267
13.179	-0.487	0.133	-0.252
13.212	-0.602	0.162	-0.235
13.245	-0.696	0.184	-0.220
13.279	-0.765	0.199	-0.207
13.312	-0.805	0.207	-0.199
13.345	-0.818	0.210	-0.197
13.379	-0.801	0.207	-0.200
13.412	-0.756	0.197	-0.209
13.445	-0.681	0.181	-0.223
13.479	-0.582	0.158	-0.240
13.512	-0.460	0.127	-0.256
13.545	-0.320	0.090	-0.271
13.579	-0.168	0.048	-0.282
13.612	-0.010	0.003	-0.286
13.645	0.150	-0.043	-0.284
13.679	0.301	-0.085	-0.275
13.712	0.442	-0.123	-0.261
13.745	0.566	-0.155	-0.244
13.779	0.668	-0.180	-0.228
13.812	0.746	-0.197	-0.213
13.845	0.795	-0.207	-0.204
13.879	0.816	-0.211	-0.199
13.912	0.811	-0.210	-0.200
13.945	0.776	-0.203	-0.207
13.979	0.714	-0.189	-0.218
14.012	0.626	-0.168	-0.233
14.046	0.517	-0.142	-0.249
14.079	0.388	-0.108	-0.264
14.112	0.247	-0.070	-0.276
14.146	0.097	-0.028	-0.283
14.179	-0.057	0.016	-0.284
14.212	-0.208	0.059	-0.279
14.246	-0.350	0.098	-0.268
14.279	-0.480	0.132	-0.254
14.312	-0.591	0.160	-0.239
14.346	-0.683	0.182	-0.224
14.379	-0.749	0.197	-0.212
14.412	-0.788	0.205	-0.204
14.446	-0.796	0.207	-0.202
14.479	-0.778	0.203	-0.206
14.512	-0.734	0.194	-0.215
14.546	-0.662	0.178	-0.228
14.579	-0.565	0.154	-0.243
14.612	-0.447	0.124	-0.260
14.646	-0.310	0.088	-0.274
14.679	-0.160	0.046	-0.283
14.712	-0.003	0.001	-0.286
14.746	0.153	-0.044	-0.283
14.779	0.302	-0.085	-0.274
14.812	0.440	-0.122	-0.260
14.846	0.560	-0.153	-0.244
14.879	0.658	-0.176	-0.228
14.913	0.733	-0.193	-0.215
14.946	0.780	-0.203	-0.205
14.979	0.801	-0.207	-0.201
15.013	0.797	-0.206	-0.201
15.046	0.762	-0.198	-0.208
15.079	0.698	-0.184	-0.220
15.113	0.612	-0.164	-0.234
15.146	0.502	-0.137	-0.250
15.179	0.377	-0.105	-0.265
15.206	0.249	-0.070	-0.275
15.239	0.102	-0.029	-0.282
15.273	-0.049	0.014	-0.284
15.306	-0.196	0.055	-0.279
15.339	-0.337	0.095	-0.270
15.373	-0.465	0.129	-0.257
15.406	-0.575	0.157	-0.243
15.439	-0.666	0.179	-0.228
15.473	-0.733	0.195	-0.217
15.506	-0.772	0.203	-0.209
15.539	-0.784	0.206	-0.206
15.573	-0.768	0.203	-0.210
15.606	-0.724	0.193	-0.218
15.640	-0.653	0.176	-0.231
15.673	-0.556	0.153	-0.246
15.706	-0.439	0.122	-0.261
15.739	-0.306	0.087	-0.274
15.772	-0.160	0.046	-0.282
15.805	-0.008	0.002	-0.286
15.839	0.143	-0.041	-0.282
15.872	0.287	-0.081	-0.274
15.905	0.422	-0.117	-0.261
15.939	0.540	-0.147	-0.245
15.972	0.638	-0.171	-0.230
16.006	0.711	-0.187	-0.217
16.039	0.759	-0.197	-0.208
16.072	0.781	-0.202	-0.204
16.106	0.777	-0.201	-0.204
16.139	0.743	-0.193	-0.211
16.172	0.681	-0.180	-0.222
16.206	0.594	-0.159	-0.236
16.239	0.487	-0.133	-0.251
16.272	0.365	-0.101	-0.265
16.306	0.229	-0.064	-0.276
16.339	0.086	-0.024	-0.283
16.372	-0.060	0.017	-0.284
16.406	-0.203	0.058	-0.280
16.439	-0.339	0.096	-0.271
16.472	-0.463	0.129	-0.258
16.506	-0.569	0.156	-0.244
16.539	-0.656	0.178	-0.231
16.572	-0.716	0.192	-0.220
16.606	-0.752	0.200	-0.213
16.639	-0.757	0.200	-0.212
16.672	-0.738	0.196	-0.215
16.706	-0.695	0.186	-0.223
16.739	-0.624	0.170	-0.236
16.772	-0.529	0.146	-0.250
16.806	-0.412	0.115	-0.264
16.839	-0.279	0.079	-0.276
16.872	-0.137	0.039	-0.284
16.906	0.010	-0.003	-0.286
16.939	0.157	-0.045	-0.282
16.973	0.297	-0.083	-0.273
17.006	0.427	-0.118	-0.260
17.039	0.541	-0.147	-0.245
17.073	0.634	-0.169	-0.230
17.106	0.703	-0.185	-0.218
17.139	0.747	-0.194	-0.210
17.173	0.762	-0.197	-0.206
17.206	0.754	-0.195	-0.208
17.239	0.717	-0.187	-0.214
17.273	0.654	-0.173	-0.226
17.306	0.567	-0.152	-0.239
17.339	0.460	-0.126	-0.254
17.373	0.338	-0.094	-0.267
17.406	0.205	-0.058	-0.277
17.439	0.065	-0.018	-0.283
17.473	-0.078	0.022	-0.284
17.506	-0.217	0.062	-0.279
17.539	-0.350	0.099	-0.270
17.573	-0.468	0.131	-0.258
17.606	-0.571	0.157	-0.245
17.639	-0.653	0.178	-0.232
17.673	-0.710	0.191	-0.222
17.706	-0.736	0.195	-0.216
17.739	-0.739	0.196	-0.215
17.773	-0.717	0.191	-0.219
17.806	-0.670	0.180	-0.228
17.840	-0.597	0.163	-0.240
17.873	-0.501	0.139	-0.254
17.906	-0.383	0.108	-0.268
17.940	-0.251	0.071	-0.278
17.973	-0.109	0.031	-0.285
18.006	0.036	-0.010	-0.285
18.040	0.179	-0.051	-0.280
18.073	0.315	-0.088	-0.270
18.106	0.439	-0.121	-0.257
18.140	0.546	-0.147	-0.243
18.173	0.633	-0.168	-0.229
18.206	0.698	-0.182	-0.217
18.240	0.735	-0.190	-0.210
18.273	0.749	-0.193	-0.208
18.306	0.738	-0.190	-0.209
18.340	0.695	-0.181	-0.217
18.373	0.626	-0.166	-0.229
18.406	0.535	-0.144	-0.243
18.440	0.427	-0.117	-0.257
18.473	0.305	-0.085	-0.270
18.506	0.172	-0.049	-0.279
18.540	0.033	-0.009	-0.284
18.573	-0.108	0.031	-0.284
18.606	-0.243	0.069	-0.279
18.640	-0.371	0.105	-0.270
18.673	-0.484	0.136	-0.258
18.706	-0.579	0.160	-0.245
18.740	-0.653	0.179	-0.233
18.774	-0.705	0.191	-0.224
18.807	-0.727	0.195	-0.220
18.841	-0.725	0.195	-0.220
18.874	-0.699	0.189	-0.225
18.907	-0.645	0.176	-0.234
18.941	-0.566	0.156	-0.246
18.974	-0.466	0.130	-0.259
19.007	-0.348	0.098	-0.271
19.041	-0.216	0.062	-0.280
19.074	-0.077	0.022	-0.285
19.107	0.065	-0.018	-0.284
19.141	0.204	-0.058	-0.278
19.174	0.335	-0.093	-0.268
19.207	0.451	-0.123	-0.255
19.241	0.552	-0.148	-0.241
19.274	0.634	-0.167	-0.228
19.308	0.691	-0.180	-0.218
19.341	0.724	-0.187	-0.212
19.374	0.732	-0.189	-0.210
19.408	0.711	-0.184	-0.214
19.441	0.662	-0.174	-0.223
19.474	0.591	-0.157	-0.234
19.508	0.498	-0.135	-0.248
19.541	0.390	-0.107	-0.261
19.574	0.267	-0.075	-0.273
19.608	0.136	-0.039	-0.281
19.641	-0.001	0.000	-0.285
19.674	-0.137	0.039	-0.284
19.708	-0.269	0.077	-0.278
19.741	-0.389	0.110	-0.268
19.774	-0.496	0.139	-0.257
19.808	-0.584	0.162	-0.244
19.841	-0.653	0.179	-0.234
19.874	-0.696	0.189	-0.226
19.908	-0.712	0.192	-0.223
19.941	-0.704	0.190	-0.224
19.974	-0.672	0.183	-0.230
20.008	-0.614	0.169	-0.240
20.041	-0.532	0.148	-0.252
20.074	-0.428	0.121	-0.264
20.108	-0.310	0.088	-0.275
20.141	-0.180	0.051	-0.283
20.174	-0.042	0.012	-0.286
20.208	0.097	-0.027	-0.284
20.241	0.231	-0.065	-0.276
20.275	0.357	-0.099	-0.265
20.308	0.469	-0.128	-0.252
20.341	0.563	-0.151	-0.239
20.375	0.637	-0.168	-0.227
20.408	0.688	-0.179	-0.218
20.441	0.712	-0.185	-0.214
20.475	0.711	-0.184	-0.214
20.508	0.683	-0.178	-0.219
20.541	0.632	-0.167	-0.228
20.575	0.558	-0.150	-0.240
20.609	0.462	-0.126	-0.253
20.642	0.352	-0.098	-0.266
20.676	0.228	-0.064	-0.276
20.709	0.097	-0.028	-0.283
20.742	-0.037	0.010	-0.286
20.776	-0.170	0.049	-0.283
20.809	-0.296	0.084	-0.277
20.842	-0.412	0.116	-0.267
20.876	-0.513	0.143	-0.255
20.909	-0.594	0.164	-0.243
20.942	-0.652	0.179	-0.234
20.976	-0.683	0.184	-0.227
21.009	-0.692	0.186	-0.225
21.042	-0.677	0.183	-0.227
21.076	-0.638	0.174	-0.234
21.109	-0.574	0.158	-0.244
21.142	-0.489	0.136	-0.256
21.176	-0.383	0.108	-0.268
21.209	-0.263	0.075	-0.278
21.243	-0.133	0.038	-0.284
21.276	0.004	-0.001	-0.285
21.309	0.140	-0.040	-0.281
21.343	0.270	-0.076	-0.273
21.376	0.390	-0.107	-0.262
21.409	0.495	-0.134	-0.249
21.443	0.579	-0.155	-0.236
21.476	0.645	-0.170	-0.225
21.509	0.685	-0.178	-0.219
21.543	0.701	-0.182	-0.216
21.576	0.696	-0.181	-0.217
21.609	0.661	-0.173	-0.223
21.643	0.602	-0.160	-0.233
21.676	0.523	-0.141	-0.245
21.709	0.423	-0.116	-0.258
21.743	0.309	-0.086	-0.270
21.776	0.185	-0.052	-0.279
21.809	0.055	-0.016	-0.285
21.843	-0.077	0.022	-0.286
21.876	-0.206	0.059	-0.282
21.909	-0.327	0.093	-0.274
21.943	-0.436	0.123	-0.264
21.976	-0.529	0.148	-0.253
22.009	-0.601	0.166	-0.242
22.043	-0.649	0.177	-0.233
22.076	-0.676	0.183	-0.229
22.109	-0.677	0.184	-0.228
22.143	-0.656	0.179	-0.232
22.176	-0.611	0.168	-0.240
22.210	-0.539	0.150	-0.250
22.243	-0.447	0.125	-0.262
22.276	-0.338	0.096	-0.272
22.310	-0.216	0.061	-0.281
22.343	-0.085	0.024	-0.285
22.376	0.048	-0.014	-0.284
22.410	0.179	-0.051	-0.279
22.443	0.303	-0.085	-0.270
22.476	0.416	-0.114	-0.259
22.510	0.515	-0.139	-0.246
22.543	0.592	-0.158	-0.235
22.576	0.647	-0.171	-0.226
22.610	0.678	-0.177	-0.220
22.643	0.686	-0.179	-0.219
22.676	0.669	-0.175	-0.222
22.710	0.626	-0.166	-0.230
22.743	0.562	-0.151	-0.240
22.776	0.476	-0.130	-0.252
22.810	0.373	-0.104	-0.264
22.843	0.257	-0.072	-0.275
22.876	0.133	-0.038	-0.283
22.910	0.005	-0.001	-0.287
22.943	-0.124	0.036	-0.286
22.976	-0.247	0.071	-0.280
23.010	-0.362	0.103	-0.272
23.043	-0.464	0.131	-0.261
23.077	-0.549	0.153	-0.250
23.110	-0.613	0.169	-0.241
23.143	-0.655	0.179	-0.233
23.177	-0.673	0.184	-0.230
23.210	-0.666	0.182	-0.231
23.243	-0.635	0.174	-0.236
23.277	-0.579	0.160	-0.245
23.310	-0.500	0.140	-0.255
23.343	-0.403	0.113	-0.266
23.377	-0.290	0.082	-0.276
23.410	-0.166	0.047	-0.283
23.443	-0.037	0.010	-0.285
23.477	0.093	-0.027	-0.283
23.510	0.222	-0.062	-0.277
23.543	0.340	-0.095	-0.267
23.577	0.446	-0.122	-0.256
23.609	0.533	-0.144	-0.244
23.642	0.602	-0.161	-0.234
23.676	0.649	-0.171	-0.226
23.709	0.672	-0.177	-0.222
23.742	0.670	-0.176	-0.223
23.776	0.643	-0.170	-0.227
23.809	0.592	-0.159	-0.236
23.842	0.522	-0.142	-0.246
23.876	0.431	-0.119	-0.258
23.909	0.325	-0.091	-0.270
23.943	0.208	-0.059	-0.279
23.976	0.085	-0.024	-0.285
24.009	-0.041	0.012	-0.287
24.043	-0.166	0.048	-0.284
24.076	-0.285	0.081	-0.278
24.109	-0.393	0.111	-0.268
24.143	-0.486	0.136	-0.258
24.176	-0.562	0.156	-0.248
24.209	-0.617	0.170	-0.239
24.243	-0.650	0.178	-0.234
24.276	-0.659	0.179	-0.232
24.309	-0.642	0.175	-0.235
24.343	-0.602	0.166	-0.241
24.376	-0.539	0.149	-0.250
24.409	-0.455	0.127	-0.260
24.443	-0.353	0.100	-0.270
24.476	-0.238	0.068	-0.279
24.509	-0.114	0.032	-0.284
24.543	0.015	-0.004	-0.285
24.576	0.142	-0.040	-0.281
24.609	0.264	-0.074	-0.274
24.643	0.375	-0.104	-0.264
24.676	0.474	-0.129	-0.253
24.709	0.554	-0.149	-0.242
24.743	0.611	-0.163	-0.233
24.776	0.647	-0.172	-0.227
24.810	0.659	-0.174	-0.225
24.843	0.647	-0.172	-0.227
24.876	0.610	-0.163	-0.233
24.910	0.553	-0.150	-0.242
24.943	0.473	-0.130	-0.253
24.976	0.378	-0.105	-0.265
25.010	0.269	-0.076	-0.275
